Measured Diameter [µm] - Detected	Intensity - Detected	Measured Diameter [µm] - Isolated	Intensity - Isolated
0.00	0.00	0.00	0.00
0.00	0.00	37.43	195.87
0.00	0.00	29.24	139.08
18.65	35.53	32.28	94.99
18.14	40.18	43.82	185.41
19.18	61.45	26.17	83.99
22.02	44.73	37.26	178.56
19.91	72.46	24.21	118.61
24.85	79.26	29.68	106.22
21.56	47.97	28.49	136.97
29.95	74.42	25.19	131.95
15.49	57.36	24.96	139.85
29.20	56.93	35.87	196.98
26.41	63.12	29.70	170.28
20.58	43.71	29.93	119.65
18.52	43.33	27.75	131.16
20.78	60.18	31.95	156.88
19.26	56.88	40.02	132.41
15.88	53.71	30.97	171.07
17.06	53.34	27.87	91.97
21.02	53.22	28.67	105.05
17.44	41.49	44.50	171.23
30.85	44.25	29.95	119.90
26.14	66.87	31.37	191.90
25.53	57.92	31.17	177.96
35.58	50.23	26.09	108.28
24.65	50.91	25.19	85.72
28.65	59.14	31.81	186.90
20.57	42.27	25.08	102.36
18.44	45.99	32.27	113.85
20.18	45.94	29.60	112.81
25.08	66.69	29.81	129.92
22.32	65.23	33.92	97.96
33.70	75.10	40.86	147.53
29.57	72.39	28.31	131.27
39.83	40.99	30.28	131.17
31.31	49.10	37.52	194.09
45.94	56.51	36.82	178.89
25.87	79.66	29.38	154.49
20.29	46.76	28.88	127.06
29.67	69.33	28.53	103.12
22.83	77.93	37.05	173.80
22.71	77.11	25.08	100.63
19.73	42.15	32.79	182.51
17.13	34.01	29.39	105.11
20.18	48.58	27.45	105.08
19.68	39.03	26.90	90.71
16.72	57.55	30.55	133.15
23.34	65.27	32.11	185.81
18.98	43.59	0.00	0.00
20.20	39.60	0.00	0.00
27.59	47.89	0.00	0.00
21.66	40.75	0.00	0.00
24.41	41.93	0.00	0.00
20.76	63.93	0.00	0.00
22.04	46.73	0.00	0.00
15.88	36.08	0.00	0.00
21.06	37.73	0.00	0.00
23.90	66.10	0.00	0.00
19.70	36.82	0.00	0.00
28.31	62.05	0.00	0.00
28.27	72.09	0.00	0.00
25.68	77.20	0.00	0.00
19.39	61.52	0.00	0.00
22.34	39.98	0.00	0.00
17.65	43.65	0.00	0.00
17.29	46.01	0.00	0.00
19.43	47.05	0.00	0.00
20.35	36.46	0.00	0.00
22.73	34.52	0.00	0.00
28.47	67.26	0.00	0.00
19.82	47.21	0.00	0.00
52.85	196.50	0.00	0.00
